61.6777	382.469
63.6771	382.812
65.6739	364.227
67.6724	370.723
69.6704	363.281
71.6681	369.904
73.6632	360.461
75.66	352.022
77.6564	336.742
79.6523	332.499
81.6457	328.897
83.6408	327.17
85.6355	326.485
87.6276	326.982
89.6214	326.635
91.6148	323.226
93.6057	319.644
95.5982	316.396
97.5882	313.391
99.5799	308.521
101.569	303.165
103.56	297.362
105.548	290.929
107.538	283.992
109.526	276.346
111.515	267.761
113.501	258.9
115.49	254.661
117.476	253.602
119.461	251.303
121.448	247.489
123.432	241.397
125.416	229.925
127.402	217.507
129.385	212.356
131.368	213.777
133.353	214.228
135.335	211.903
137.316	208.504
139.297	204.564
141.28	199.414
143.261	194.117
145.24	199.372
147.22	202.116
149.199	199.566
151.177	197.603
153.158	195.62
155.136	194.023
157.113	192.684
159.09	195.56
161.066	197.852
163.042	195.839
165.018	193.555
166.993	191.316
168.968	188.602
170.942	187.873
172.916	187.253
174.89	187.463
176.863	187.224
178.836	186.849
180.806	188.111
182.778	181.471
184.749	180.988
186.721	181.637
188.691	183.444
190.661	186.436
192.629	185.357
194.599	185.115
196.567	187.61
198.536	187.507
200.502	187.289
202.47	186.843
204.437	186.573
206.402	185.685
208.368	184.485
210.334	183.711
212.298	183.165
214.263	183.858
216.228	185.172
218.19	186.78
220.154	190.194
222.116	191.307
224.079	190.33
226.04	189.033
228.002	185.214
229.962	182.771
231.923	182.394
233.882	182.604
235.843	182.258
237.801	181.664
239.759	184.971
241.718	189.017
243.675	193.356
245.632	197.44
247.59	200.805
249.545	201.925
251.501	200.9
253.455	199.562
255.412	197.499
257.366	194.95
259.32	191.974
261.273	188.795
263.228	186.316
265.18	184.646
267.132	184.469
269.084	184.352
271.035	186.64
272.985	183.978
274.936	182.329
276.886	181.401
278.835	181.04
280.784	179.034
282.733	176.319
284.681	173.736
286.629	171.612
288.576	169.723
290.524	168.578
292.47	165.003
294.416	162.904
296.362	160.831
298.308	159.487
300.253	158.946
302.195	159.266
304.139	161.643
306.083	163.801
308.026	166.419
309.967	165.092
311.91	164.95
313.852	165.825
315.794	164.158
317.733	161.915
319.674	160.891
321.614	161.476
323.552	158.864
325.492	155.708
327.429	151.722
329.368	151.529
331.306	155.397
333.242	152.754
335.18	155.626
337.115	159.243
339.052	158.713
340.986	155.63
342.922	152.79
344.856	149.846
346.789	148.084
348.724	149.61
350.656	153.127
352.59	152.713
354.522	151.454
356.453	156.461
358.384	157.59
360.316	153.888
362.246	151.268
364.175	149.459
366.106	145.882
368.035	142.672
369.963	140.889
371.891	140.128
373.819	140.721
375.746	142.815
377.672	145.126
379.601	147.859
381.527	152.662
383.452	153.765
385.377	150.619
387.302	148.394
389.226	146.654
391.15	146.402
393.073	147.333
394.996	149.113
396.919	151.232
398.841	153.717
400.761	154.721
402.682	154.935
404.603	154.229
406.524	152.69
408.444	150.302
410.364	147.172
412.282	144.538
414.201	142.437
416.119	142.225
418.037	142.337
419.953	143.139
421.871	145.522
423.788	148.857
425.702	151.86
427.618	154.254
429.534	155.793
431.448	155.38
433.363	152.775
435.275	150.528
437.189	150.573
439.101	152.527
441.015	154.404
442.926	155.727
444.838	156.957
446.748	156.51
448.66	155.575
450.57	153.962
452.479	152.088
454.389	150.436
456.297	148.223
458.205	144.535
460.115	139.568
462.022	139.852
463.928	141.694
465.837	143.369
467.742	143.633
469.648	143.358
471.553	143.242
473.457	141.828
475.362	140.053
477.267	138.442
479.171	137.345
481.074	136.592
482.977	136.167
484.879	135.99
486.781	136.353
488.682	137.038
490.583	137.754
492.484	136.646
494.384	134.426
496.284	135.845
498.184	123.788
500.083	127.014
501.979	130.358
503.878	134.478
505.775	137.817
507.673	135.058
509.57	131.891
511.465	128.707
513.361	126.623
515.257	126.05
517.153	126.778
519.046	127.346
520.94	125.687
522.835	124.639
524.727	126.961
526.62	131.087
528.514	133.423
530.404	135.026
532.297	136.573
534.187	133.328
536.078	130.127
537.967	127.743
539.858	126.409
541.747	126.536
543.637	127.571
545.524	129.596
547.412	129.913
549.301	129.673
551.187	129.492
553.073	129.238
554.961	128.983
556.846	128.761
558.731	128.499
560.615	128.378
562.502	128.69
564.385	128.882
566.269	124.989
568.152	123.23
570.034	123.599
571.918	126.568
573.8	127.933
575.682	129.132
577.563	131.995
579.443	130.38
581.323	127.022
583.203	125.053
585.083	124.32
586.962	125.931
588.84	127.987
590.719	129.968
592.597	131.423
594.472	132.764
596.349	133.2
598.226	133.089
600.102	132.362
601.978	131.696
603.852	128.559
605.727	125.157
607.602	122.426
609.476	120.317
611.348	119.251
613.222	118.805
615.095	119.155
616.966	120.144
618.839	122.469
620.709	125.068
622.58	127.648
624.452	126.128
626.321	121.636
628.191	123.747
630.059	126.761
631.927	129.222
633.797	131.127
635.664	130.589
637.532	129.142
639.398	130.085
641.264	131.457
643.132	133.538
644.997	133.646
646.862	132.742
648.728	131.11
650.592	129.607
652.455	128.147
654.319	127.508
656.181	126.904
658.046	126.641
659.908	126.622
661.77	125.896
663.631	123.489
665.492	123.786
667.352	125.667
669.212	127.218
671.072	125.773
672.931	123.531
674.79	123.407
676.649	125.807
678.507	128.87
680.365	129.389
682.222	128.042
684.079	129.536
685.934	131.51
687.79	133.725
689.646	135.132
691.502	132.584
693.355	131.067
695.21	129.632
697.064	128.647
698.918	127.537
700.77	126.221
702.623	125.668
704.474	125.685
706.327	127.378
708.179	128.902
710.028	132.313
711.88	134.645
713.729	134.141
715.579	132.724
717.428	131.692
719.278	131.107
721.125	131.422
722.972	132.74
724.821	135.751
726.667	136.989
728.513	136.399
730.361	134.219
732.206	131.777
734.051	130.901
735.895	130.738
737.741	131.314
739.585	130.365
741.428	130.973
743.271	132.72
745.114	134.53
746.956	136.291
748.8	136.61
750.641	136.843
752.482	136.623
754.323	135.402
756.163	128.564
758.003	130.274
759.843	133.605
761.68	136.052
763.519	138.428
765.357	140.595
767.196	140.804
769.033	140.984
770.871	141.888
772.706	143.078
774.542	145.252
776.378	147.264
778.214	148.941
780.048	149.747
781.883	148.838
783.717	147.037
785.55	144.626
787.384	141.872
789.217	138.272
791.048	138.217
792.881	139.397
794.712	137.201
796.544	137.607
798.374	139.268
800.203	141.899
802.034	144.174
803.863	145.878
805.693	145.647
807.521	145.273
809.348	145.256
811.177	145.173
813.004	144.981
814.831	144.953
816.656	146.207
818.484	148.164
820.309	150.156
822.134	149.644
823.959	149.347
825.783	147.249
827.607	143.298
829.43	151.549
831.253	147.174
833.076	143.517
834.898	141.194
836.72	137.506
838.542	132.807
840.363	143.166
842.184	148.585
844.004	147.713
845.824	146.22
847.644	146.702
849.464	147.195
851.281	148.468
853.099	149.856
854.917	149.743
856.735	148.209
858.551	146.761
860.368	145.478
862.185	144.232
863.999	141.043
865.815	137.784
867.629	134.461
869.444	131.885
871.259	131.918
873.072	133.087
874.884	135.816
876.698	137.918
878.51	137.605
880.323	138.563
882.133	141.167
883.946	145.478
885.756	145.342
887.566	141.435
889.375	138.254
891.186	136.763
892.994	130.741
894.803	136.897
896.611	143.375
898.42	149.763
900.227	152.597
902.034	153.057
903.84	148.769
905.646	144.558
907.452	141.169
909.257	139.734
911.062	138.534
912.867	139.72
914.671	141.23
916.475	143.064
918.278	142.926
920.081	140.122
921.884	138.147
923.685	138.389
925.487	143.285
927.288	149.614
929.09	149.183
930.889	151.303
932.689	154.576
934.489	157.41
936.287	156.808
938.087	151.46
939.886	150.131
941.683	146.076
943.481	146.628
945.277	147.025
947.075	149.727
948.87	153.157
950.667	157.332
952.462	162.313
954.258	162.873
956.052	160.018
957.846	157.194
959.641	154.856
961.434	152.87
963.226	151.306
965.02	150.138
966.812	149.139
968.603	148.785
970.394	149.079
972.185	149.599
973.977	150.398
975.767	148.771
977.557	151.632
979.346	151.902
981.135	151.784
982.924	151.202
984.712	150.331
986.499	147.053
988.287	145.266
990.074	145.473
991.861	146.724
993.645	148.112
995.431	148.632
997.217	147.947
999.002	145.805
1000.79	147.965
1002.57	147.822
1004.35	147.344
1006.14	147.015
1007.92	146.771
1009.7	147.284
1011.49	147.09
1013.27	147.074
1015.05	147.219
1016.83	147.474
1018.61	147.702
1020.39	149.095
1022.17	151.442
1023.95	152.87
1025.73	154.647
1027.5	156.994
1029.28	158.735
1031.06	158.199
1032.84	157.268
1034.61	156.536
1036.39	156.791
1038.17	159.466
1039.94	164.095
1041.72	169.264
1043.49	168.433
1045.27	168.918
1047.04	169.018
1048.81	168.94
1050.59	168.786
1052.36	168.555
1054.13	168.043
1055.9	168.182
1057.67	169.084
1059.45	169.245
1061.22	153.942
1062.99	161.301
1064.76	169.097
1066.53	177.338
1068.29	180.322
1070.06	181.361
1071.83	181.592
1073.6	182.774
1075.37	185.157
1077.14	186.52
1078.9	185.735
1080.67	185.797
1082.43	186.543
1084.2	188.196
1085.96	191.678
1087.73	192.891
1089.49	187.932
1091.26	185.637
1093.02	184.412
1094.78	185.956
1096.55	186.989
1098.31	188.78
1100.07	190.843
1101.83	192.7
1103.59	194.119
1105.35	195.083
1107.11	195.436
1108.87	195.551
1110.63	193.112
1112.39	189.615
1114.15	187.61
1115.91	186.792
1117.67	186.079
1119.42	186.862
1121.18	187.769
1122.94	188.637
1124.69	190.747
1126.45	190.881
1128.21	191.503
1129.96	194.282
1131.71	195.024
1133.47	195.583
1135.22	185.507
1136.98	176.945
1138.73	181.742
1140.48	188.89
1142.23	194.107
1143.99	191.374
1145.74	189.184
1147.49	187.72
1149.24	186.804
1150.99	186.293
1152.74	186.582
1154.49	187.367
1156.24	188.395
1157.99	189.829
1159.73	191.715
1161.48	193.827
1163.23	195.875
1164.98	195.18
1166.72	190.18
1168.47	187.56
1170.22	188.688
1171.96	192.709
1173.71	196.176
1175.45	195.207
1177.19	195.074
1178.94	197.089
1180.68	199.567
1182.43	201.803
1184.17	199.114
1185.91	195.178
1187.65	191.812
1189.4	189.941
1191.13	192.653
1192.88	197.247
1194.62	204.037
1196.36	212.06
1198.1	209.865
1199.84	206.885
1201.57	204.058
1203.31	201.46
1205.05	200.019
1206.79	199.277
1208.52	200.392
1210.26	201.896
1212	203.75
1213.73	206.149
1215.47	209.199
1217.2	213.294
1218.94	214.515
1220.67	223.291
1222.41	224.547
1224.14	225.217
1225.87	225.761
1227.61	225.958
1229.34	225.915
1231.07	225.37
1232.8	226.397
1234.53	229.132
1236.27	231.325
1238	233.536
1239.73	235.959
1241.46	238.608
1243.18	241.511
1244.91	244.708
1246.64	245.997
1248.37	243.172
1250.1	240.888
1251.83	248.503
1253.55	255.94
1255.28	261.584
1257.01	269.14
1258.73	277.699
1260.46	280.497
1262.18	284.229
1263.91	286.959
1265.63	289.338
1267.35	289.358
1269.08	290.016
1270.8	291.705
1272.52	299.109
1274.24	310.192
1275.97	321.427
1277.69	332.356
1279.41	342.891
1281.13	353.287
1282.85	364.284
1284.57	373.368
1286.29	383.402
1288.01	394.6
1289.73	408.053
1291.44	424.206
1293.16	440.929
1294.88	463.595
1296.6	487.778
1298.31	513.324
1300.03	539.583
1301.75	565.978
1303.46	593.476
1305.18	622.411
1306.89	649.003
1308.61	683.023
1310.32	716.979
1312.03	757.206
1313.75	806.95
1315.46	848.325
1317.17	896.499
1318.88	942.558
1320.59	985.27
1322.31	1024.7
1324.02	1059.86
1325.73	1091.72
1327.44	1119.35
1329.15	1143.86
1330.86	1166.64
1332.57	1181.43
1334.28	1189.82
1335.98	1186.57
1337.69	1180.49
1339.4	1175.27
1341.11	1166.85
1342.81	1158.13
1344.52	1138.93
1346.22	1110.5
1347.93	1067.17
1349.63	1022.46
1351.34	973.129
1353.04	923.438
1354.75	876.195
1356.45	832.03
1358.15	790.218
1359.86	750.607
1361.56	712.911
1363.26	677.281
1364.96	643.492
1366.66	610.408
1368.36	578.93
1370.06	549.497
1371.76	518.562
1373.46	495.223
1375.16	480.55
1376.86	466.278
1378.56	452.904
1380.26	439.369
1381.95	422.695
1383.65	407.672
1385.35	393.996
1387.05	381.589
1388.74	370.55
1390.44	360.594
1392.13	351.388
1393.83	342.754
1395.52	334.453
1397.22	327.351
1398.91	321.338
1400.61	316.316
1402.3	312.96
1403.99	310.855
1405.68	309.722
1407.37	301.922
1409.07	296.767
1410.76	290.071
1412.45	286.089
1414.14	286.984
1415.83	288.47
1417.52	289.484
1419.21	290.04
1420.9	289.655
1422.58	288.829
1424.27	287.222
1425.96	285.059
1427.65	282.325
1429.33	279.274
1431.02	275.768
1432.71	272.104
1434.39	269.485
1436.08	268.332
1437.76	269.072
1439.45	268.281
1441.13	267.529
1442.82	266.653
1444.5	267.44
1446.18	258.308
1447.87	252.282
1449.55	254.116
1451.23	259.768
1452.91	272.127
1454.59	272.827
1456.27	273.965
1457.95	275.542
1459.63	277.47
1461.31	278.434
1462.99	276.883
1464.67	272.44
1466.35	269.026
1468.03	267.201
1469.71	266.503
1471.38	268.065
1473.06	270.804
1474.74	273.991
1476.41	277.003
1478.09	278.674
1479.76	279.862
1481.44	279.375
1483.11	281.314
1484.79	286.753
1486.46	292.6
1488.14	296.398
1489.81	299.041
1491.48	300.876
1493.15	302.23
1494.83	303.465
1496.5	304.014
1498.17	304.981
1499.84	306.356
1501.51	308.711
1503.18	312.698
1504.85	317.891
1506.52	324.805
1508.19	333.044
1509.86	342.127
1511.53	348.694
1513.19	354.479
1514.86	361.007
1516.53	368.214
1518.19	376.986
1519.86	386.585
1521.53	397.493
1523.19	409.754
1524.86	423.221
1526.52	435.143
1528.19	448.157
1529.85	465.715
1531.51	480.247
1533.18	499.025
1534.84	521.992
1536.5	554.553
1538.17	588.694
1539.83	625.346
1541.49	663.66
1543.15	703.031
1544.81	743.865
1546.47	798.456
1548.13	852.984
1549.79	921.311
1551.45	991.253
1553.11	1058.78
1554.77	1124.56
1556.43	1186.33
1558.08	1247.44
1559.74	1309.89
1561.4	1373.41
1563.05	1439.12
1564.71	1485.2
1566.36	1508.21
1568.02	1514.26
1569.68	1511.41
1571.33	1499.95
1572.99	1480.41
1574.64	1452.98
1576.29	1417.45
1577.94	1373.8
1579.6	1323.24
1581.25	1261.01
1582.9	1195.93
1584.55	1135.01
1586.2	1078.69
1587.86	1027.3
1589.51	981.061
1591.16	940.604
1592.81	905.496
1594.46	875.141
1596.1	850.424
1597.75	830.413
1599.4	806.254
1601.05	781.933
1602.7	756.775
1604.34	728.759
1605.99	699.581
1607.64	670.14
1609.28	641.645
1610.93	608.782
1612.57	577.254
1614.22	547.463
1615.86	520.171
1617.51	494.811
1619.15	470.959
1620.79	448.239
1622.44	423.211
1624.08	396.667
1625.72	367.856
1627.36	348.918
1629.01	333.591
1630.65	321.663
1632.29	311.298
1633.93	302.682
1635.57	295.518
1637.21	290.292
1638.85	278.618
1640.49	266.802
1642.13	256.557
1643.76	247.668
1645.4	234.976
1647.04	233.654
1648.68	229.755
1650.31	227.771
1651.95	219.889
1653.58	208.797
1655.22	205.053
1656.86	205.427
1658.49	203.97
1660.12	199.591
1661.76	195.955
1663.39	193.043
1665.03	191.31
1666.66	191.029
1668.29	193.026
1669.92	187.418
1671.56	183.963
1673.19	181.685
1674.82	181.936
1676.45	183.711
1678.08	184.418
1679.71	184.682
1681.34	184.511
1682.97	184.016
1684.6	183.15
1686.23	179.47
1687.85	176.822
1689.48	170.96
1691.11	168.956
1692.74	169.976
1694.36	171.323
1695.99	172.414
1697.62	173.29
1699.24	173.407
1700.87	171.457
1702.49	167.26
1704.12	163.937
1705.74	161.004
1707.36	158.418
1708.99	155.945
1710.61	158.622
1712.23	161.427
1713.86	163.443
1715.48	164.909
1717.1	165.708
1718.72	165.904
1720.34	164.922
1721.96	163.372
1723.58	161.72
1725.2	159.633
1726.82	157.951
1728.44	158.291
1730.06	159.772
1731.68	163.473
1733.29	164.663
1734.91	131.576
1736.53	169.598
1738.15	166.13
1739.76	162.751
1741.38	160.918
1742.99	159.805
1744.61	158.881
1746.22	158.054
1747.84	157.26
1749.45	156.439
1751.07	155.649
1752.68	154.814
1754.29	153.981
1755.91	152.891
1757.52	151.53
1759.13	149.916
1760.74	148.745
1762.35	148.625
1763.96	149.554
1765.58	146.963
1767.19	155.048
1768.79	162.266
1770.4	162.377
1772.01	160.404
1773.62	158.412
1775.23	157.633
1776.84	151.749
1778.45	160.241
1780.05	161.672
1781.66	161.289
1783.27	158.44
1784.87	156.029
1786.48	153.949
1788.08	152.219
1789.69	150.737
1791.29	149.801
1792.9	148.625
1794.5	149.177
1796.11	148.183
1797.71	147.114
1799.31	148.295
1800.91	153.177
1802.52	154.682
1804.12	153.635
1805.72	152.957
1807.32	152.265
1808.92	151.68
1810.52	152.188
1812.12	152.772
1813.72	153.811
1815.32	155.439
1816.92	157.167
1818.52	159.087
1820.12	159.971
1821.71	158.974
1823.31	157.868
1824.91	156.817
1826.51	155.926
1828.1	155.131
1829.7	155.487
1831.29	156.148
1832.89	156.958
1834.48	157.91
1836.08	158.612
1837.67	158.964
1839.27	158.344
1840.86	157.035
1842.45	155.261
1844.05	153.248
1845.64	151.427
1847.23	149.674
1848.82	149.774
1850.41	151.147
1852	153.305
1853.6	155.676
1855.18	159.381
1856.77	160.29
1858.36	156.962
1859.95	148.548
1861.54	148.099
1863.13	149.943
1864.72	153.042
1866.31	156.814
1867.89	158.382
1869.48	160.352
1871.07	159.903
1872.65	159.84
1874.24	170.421
1875.83	160.836
1877.41	154.604
1878.99	153.906
1880.58	154.334
1882.16	154.625
1883.75	151.332
1885.33	150.713
1886.91	152.672
1888.5	154.546
1890.08	156.832
1891.66	157.967
1893.24	157.759
1894.82	156.713
1896.4	155.156
1897.99	153.144
1899.57	150.741
1901.14	148.289
1902.73	146.56
1904.3	147.218
1905.88	149.044
1907.46	151.109
1909.04	152.635
1910.62	153.849
1912.19	154.506
1913.77	154.233
1915.35	152.816
1916.92	149.784
1918.5	147.643
1920.07	145.461
1921.65	141.088
1923.22	143.633
1924.8	147.572
1926.37	151.687
1927.95	155.314
1929.52	152.944
1931.09	150.139
1932.67	147.855
1934.24	146.226
1935.81	145.307
1937.38	144.75
1938.95	144.667
1940.52	145.04
1942.09	145.444
1943.67	147.246
1945.23	149.219
1946.8	150.785
1948.37	151.575
1949.94	150.876
1951.51	149.433
1953.08	147.885
1954.65	146.766
1956.21	146.035
1957.78	145.627
1959.35	145.557
1960.91	145.644
1962.48	146.332
1964.04	147.524
1965.61	148.655
1967.17	149.533
1968.74	150.073
1970.3	150.512
1971.87	150.863
1973.43	151.199
1974.99	151.55
1976.55	152
1978.12	152.407
1979.68	152.821
1981.24	153.08
1982.8	153.085
1984.36	152.799
1985.92	152.193
1987.49	151.405
1989.04	150.682
1990.6	150.381
1992.16	150.287
1993.72	150.546
1995.28	151.141
1996.84	151.992
1998.4	152.72
1999.95	153.414
2001.51	153.699
2003.07	153.454
2004.62	152.129
2006.18	148.886
2007.73	145.201
2009.29	144.309
2010.85	144.725
2012.4	145.523
2013.95	146.453
2015.51	145.649
2017.06	145.207
2018.61	144.697
2020.17	144.56
2021.72	145.019
2023.27	147.206
2024.82	150.449
2026.37	153.749
2027.93	154.365
2029.48	153.898
2031.03	153.271
2032.58	152.552
2034.13	153.732
2035.68	153.066
2037.23	151.305
2038.77	153.538
2040.32	154.912
2041.87	156.412
2043.42	151.822
2044.96	151.154
2046.51	152.962
2048.06	158.038
2049.6	156.698
2051.15	152.853
2052.7	149.736
2054.24	147.203
2055.79	145.61
2057.33	144.696
2058.87	144.497
2060.42	144.877
2061.96	145.964
2063.5	147.705
2065.05	150.048
2066.59	152.562
2068.13	154.992
2069.67	156.568
2071.21	157.186
2072.76	156.592
2074.3	154.095
2075.84	150.84
2077.38	148.137
2078.91	146.811
2080.45	146.549
2081.99	147.496
2083.53	149.17
2085.07	150.963
2086.61	152.539
2088.14	153.636
2089.68	153.862
2091.22	153.681
2092.75	153.692
2094.29	151.406
2095.83	149.213
2097.36	148.547
2098.9	150.403
2100.43	152.117
2101.97	154.277
2103.5	153.483
2105.03	152.526
2106.57	151.635
2108.1	150.969
2109.63	150.334
2111.16	149.949
2112.7	149.606
2114.23	149.399
2115.76	149.276
2117.29	149.338
2118.82	149.208
2120.35	148.352
2121.88	146.901
2123.41	146.422
2124.94	152.287
2126.47	157.213
2127.99	157.232
2129.52	155.95
2131.05	154.468
2132.58	152.939
2134.1	152.604
2135.63	152.729
2137.16	154.956
2138.68	156.064
2140.21	156.546
2141.73	157.621
2143.26	154.625
2144.78	151.447
2146.31	148.574
2147.83	146.944
2149.36	146.893
2150.88	148.896
2152.4	152.987
2153.92	156.259
2155.45	156.781
2156.97	156.309
2158.49	155.61
2160.01	154.825
2161.53	154.451
2163.05	154.465
2164.57	154.455
2166.09	154.726
2167.61	154.74
2169.13	154.794
2170.65	154.554
2172.17	154.182
2173.69	153.851
2175.2	153.847
2176.72	154.222
2178.24	154.777
2179.75	155.439
2181.27	155.69
2182.79	154.717
2184.3	153.457
2185.82	151.656
2187.33	151.355
2188.85	152.35
2190.36	153.687
2191.88	155.031
2193.39	156.321
2194.9	157.33
2196.41	157.758
2197.93	158.397
2199.44	158.848
2200.95	159.075
2202.46	159.275
2203.97	158.785
2205.48	157.999
2207	156.715
2208.51	155.355
2210.02	153.832
2211.52	152.779
2213.03	152.693
2214.54	151.855
2216.05	149.503
2217.56	163.416
2219.07	165.671
2220.57	166.472
2222.08	161.734
2223.59	157.918
2225.09	155.158
2226.6	153.277
2228.11	152.14
2229.61	151.432
2231.12	149.936
2232.62	149.64
2234.13	150.555
2235.63	152.557
2237.13	154.53
2238.64	156.389
2240.14	157.863
2241.64	158.787
2243.15	159.093
2244.65	158.81
2246.15	157.298
2247.65	154.717
2249.15	159.384
2250.65	162.574
2252.15	162.475
2253.65	161.085
2255.15	160.054
2256.65	159.277
2258.15	159.988
2259.65	161.732
2261.15	164.015
2262.64	166.104
2264.14	167.397
2265.64	167.788
2267.14	166.995
2268.63	165.235
2270.13	162.262
2271.62	158.904
2273.12	156.066
2274.61	154.592
2276.11	154.399
2277.6	155.439
2279.1	157.699
2280.59	160.616
2282.09	164.016
2283.58	167.076
2285.07	169.695
2286.56	169.463
2288.05	169.215
2289.55	169.326
2291.04	169.831
2292.53	169.244
2294.02	167.557
2295.51	166.778
2297	166.359
2298.49	166.044
2299.98	165.313
2301.47	163.998
2302.96	162.543
2304.45	159.13
2305.93	158.291
2307.42	161.311
2308.91	164.846
2310.4	168.015
2311.88	170.984
2313.37	173.504
2314.86	175.328
2316.34	176.029
2317.83	176.375
2319.31	176.308
2320.8	177.491
2322.28	178.617
2323.76	179.695
2325.25	180.176
2326.73	179.402
2328.22	177.65
2329.7	175.993
2331.18	174.479
2332.66	175.087
2334.14	175.773
2335.63	178.294
2337.11	179.934
2338.59	180.365
2340.07	180.296
2341.55	180.012
2343.03	179.602
2344.51	179.103
2345.99	178.365
2347.46	177.441
2348.94	176.248
2350.42	175.142
2351.9	174.814
2353.38	177.293
2354.85	181.469
2356.33	185.283
2357.81	187.148
2359.28	186.985
2360.76	186.998
2362.23	187.194
2363.71	187.536
2365.18	187.896
2366.66	188.323
2368.13	188.707
2369.6	189.147
2371.08	189.66
2372.55	190.173
2374.02	189.508
2375.5	189.286
2376.97	188.332
2378.44	189.878
2379.91	190.983
2381.38	191.143
2382.85	196.391
2384.32	198.465
2385.79	199.653
2387.26	200.379
2388.73	200.775
2390.2	200.859
2391.67	199.772
2393.14	199.283
2394.6	199.625
2396.07	201.03
2397.54	202.731
2399.01	204.289
2400.47	205.778
2401.94	207.127
2403.41	208.416
2404.87	209.62
2406.34	210.731
2407.8	211.691
2409.27	212.516
2410.73	213.333
2412.2	214.345
2413.66	215.976
2415.12	218.374
2416.59	220.339
2418.05	224.723
2419.51	230.471
2420.97	236.24
2422.44	239.469
2423.9	239.899
2425.36	237.444
2426.82	236.178
2428.28	233.61
2429.74	234.369
2431.2	232.194
2432.66	231.566
2434.12	232.447
2435.57	236.194
2437.03	239.659
2438.49	242.113
2439.95	240.707
2441.41	240.118
2442.86	240.295
2444.32	241.456
2445.78	241.138
2447.23	238.431
2448.69	235.925
2450.14	236.947
2451.6	235.931
2453.05	235.665
2454.51	234.631
2455.96	234.514
2457.42	235.654
2458.87	238.207
2460.32	233.495
2461.78	230.858
2463.23	230.853
2464.68	233.438
2466.13	235.078
2467.58	230.533
2469.03	226.864
2470.49	225.184
2471.94	226.172
2473.39	226.676
2474.84	228.069
2476.28	229.385
2477.73	228.532
2479.18	227.219
2480.63	226.279
2482.08	225.565
2483.53	225.569
2484.98	226.817
2486.42	228.599
2487.87	229.134
2489.32	229.216
2490.76	228.002
2492.21	226.9
2493.65	227.337
2495.1	228.537
2496.54	231.236
2497.99	232.104
2499.43	231.519
2500.88	231.15
2502.32	230.919
2503.76	230.207
2505.21	229.797
2506.65	229.472
2508.09	229.314
2509.53	229.203
2510.98	228.417
2512.42	227.056
2513.86	227.664
2515.3	227.741
2516.74	230.373
2518.18	234.148
2519.62	237.187
2521.06	240.212
2522.5	242.845
2523.93	244.415
2525.37	243.673
2526.81	243.77
2528.25	246.19
2529.69	249.987
2531.12	249.673
2532.56	249.083
2534	249.654
2535.43	246.555
2536.87	243.361
2538.3	241.596
2539.74	240.725
2541.18	240.763
2542.61	242.2
2544.04	244.43
2545.48	247.328
2546.91	250.96
2548.34	255.114
2549.78	258.652
2551.21	262.145
2552.64	265.992
2554.07	267.456
2555.51	268.015
2556.94	268.279
2558.37	269.398
2559.8	271.711
2561.23	273.547
2562.66	275.193
2564.09	275.955
2565.52	277.051
2566.95	278.409
2568.37	280.248
2569.8	280.472
2571.23	281.035
2572.66	283.188
2574.09	287.106
2575.51	292.57
2576.94	298.144
2578.37	303.819
2579.79	308.862
2581.22	312.585
2582.64	315.293
2584.07	318.035
2585.49	320.971
2586.92	324.203
2588.34	326.258
2589.77	328.96
2591.19	332.156
2592.61	336.468
2594.04	340.654
2595.46	346.876
2596.88	354.445
2598.3	362.203
2599.72	370.47
2601.14	378.758
2602.57	386.256
2603.99	393.504
2605.41	401.726
2606.83	410.477
2608.25	419.704
2609.67	429.031
2611.08	438.258
2612.5	447.417
2613.92	456.672
2615.34	465.96
2616.76	474.71
2618.18	485.134
2619.59	497.913
2621.01	511.099
2622.42	524.044
2623.84	536.969
2625.26	551.892
2626.67	567.185
2628.09	581.965
2629.5	596.921
2630.92	612.953
2632.33	631.551
2633.74	651.295
2635.16	670.771
2636.57	689.263
2637.98	705.856
2639.4	723.502
2640.81	745.03
2642.22	767.755
2643.63	790.934
2645.04	810.361
2646.46	830.055
2647.87	850.065
2649.28	868.996
2650.69	890.778
2652.1	911.255
2653.51	927.534
2654.91	942.75
2656.32	961.318
2657.73	982.84
2659.14	1005.06
2660.55	1022.31
2661.95	1034.09
2663.36	1041.48
2664.77	1048.31
2666.17	1052.61
2667.58	1058.4
2668.99	1062.53
2670.39	1068.51
2671.8	1076.95
2673.2	1076.96
2674.61	1071.4
2676.01	1061.09
2677.42	1054.58
2678.82	1048.86
2680.22	1041.74
2681.63	1034.93
2683.03	1022.76
2684.43	1002.14
2685.83	985.127
2687.23	972.244
2688.64	957.196
2690.04	939.58
2691.44	920.896
2692.84	901.825
2694.24	882.331
2694.71	875.733
2696.14	855.334
2697.56	834.293
2698.99	804.087
2700.41	787.113
2701.84	770.869
2703.26	749.462
2704.69	722.344
2706.11	697.57
2707.53	673.926
2708.96	656.578
2710.38	639.133
2711.8	618.573
2713.23	599.475
2714.65	581.54
2716.07	564.374
2717.49	547.605
2718.91	531.646
2720.33	515.541
2721.75	501.578
2723.17	487.761
2724.59	473.085
2726.01	459.025
2727.43	445.941
2728.85	433.972
2730.27	423.309
2731.69	413.69
2733.11	404.974
2734.53	397.91
2735.94	392.081
2737.36	387.156
2738.78	382.3
2740.2	376.722
2741.61	370.769
2743.03	364.554
2744.45	357.518
2745.86	348.806
2747.28	340.766
2748.69	331.531
2750.11	322.855
2751.52	316.247
2752.94	309.928
2754.35	307.209
2755.76	307.548
2757.18	309.102
2758.59	306.899
2760	304.442
2761.42	303.791
2762.83	298.302
2764.24	291.109
2765.65	283.971
2767.07	279.166
2768.48	275.761
2769.89	273.078
2771.3	271.267
2772.71	270.241
2774.12	270.519
2775.53	271.799
2776.94	268.218
2778.35	265.397
2779.76	262.662
2781.16	262.706
2782.57	262.814
2783.98	260.177
2785.39	257.368
2786.8	254.827
2788.2	253.046
2789.61	251.808
2791.02	244.43
2792.42	242.936
2793.83	244.683
2795.23	251.577
2796.64	256.067
2798.05	257.479
2799.45	255.633
2800.86	252.457
2802.26	249.315
2803.66	247.089
2805.07	245.911
2806.47	245.144
2807.87	242.552
2809.28	238.124
2810.68	238.126
2812.08	239.207
2813.49	240.428
2814.89	240.629
2816.29	239.538
2817.69	234.927
2819.09	233.018
2820.49	232.484
2821.89	233.509
2823.29	232.444
2824.69	230.16
2826.09	228.753
2827.49	231.135
2828.89	234.634
2830.29	236.908
2831.69	238.673
2833.09	239.878
2834.48	240.656
2835.88	240.894
2837.28	241.174
2838.68	239.874
2840.07	238.171
2841.47	236.569
2842.87	235.171
2844.26	234.791
2845.66	234.867
2847.05	235.626
2848.45	237.457
2849.84	240.146
2851.24	243.3
2852.63	246.501
2854.03	249.245
2855.42	251.588
2856.81	245.101
2858.21	239.857
2859.6	246.809
2860.99	252.71
2862.38	254.854
2863.78	253.613
2865.17	250.968
2866.56	250.022
2867.95	249.794
2869.34	250.34
2870.73	251.673
2872.12	253.956
2873.51	257.264
2874.9	259.083
2876.29	258.792
2877.68	258.783
2879.07	259.139
2880.46	259.658
2881.85	260.529
2883.23	260.976
2884.62	262.103
2886.01	264.052
2887.4	265.724
2888.78	267.028
2890.17	266.023
2891.56	264.677
2892.94	263.973
2894.33	263.67
2895.71	264.565
2897.1	266.687
2898.48	270.413
2899.87	275.101
2901.25	279.739
2902.64	282.469
2904.02	283.314
2905.41	283.963
2906.79	284.059
2908.17	281.377
2909.55	279.279
2910.94	280.492
2912.32	280.925
2913.7	281.683
2915.08	274.094
2916.46	268.524
2917.85	269.78
2919.23	269.105
2920.61	274.581
2921.99	279.398
2923.37	279.85
2924.75	277.642
2926.13	273.995
2927.5	269.308
2928.88	265.872
2930.26	271.21
2931.64	274.467
2933.02	272.405
2934.4	268.734
2935.77	264.272
2937.15	258.285
2938.53	253.337
2939.9	250.186
2941.28	249.889
2942.66	251.904
2944.03	256.426
2945.41	256.383
2946.78	254.884
2948.16	252.083
2949.53	248.774
2950.91	245.323
2952.28	242.459
2953.66	240.335
2955.03	237.759
2956.4	235.979
2957.78	234.39
2959.15	232.955
2960.52	231.726
2961.89	229.86
2963.26	228.24
2964.64	225.3
2966.01	219.186
2967.38	215.661
2968.75	214.899
2970.12	209.893
2971.49	208.655
2972.86	212.05
2974.23	216.356
2975.6	222.082
2976.97	220.581
2978.34	217.606
2979.71	214.622
2981.07	211.705
2982.44	206.084
2983.81	201.876
2985.18	200.804
2986.54	200.594
2987.91	199.342
2989.28	197.754
2990.64	197.166
2992.01	197.545
2993.38	197.727
2994.74	197.535
2996.11	198.111
2997.47	198.646
2998.84	198.925
3000.2	199.027
3001.57	197.964
3002.93	195.988
3004.29	189.583
3005.66	187.57
3007.02	188.528
3008.38	191.222
3009.75	192.206
3011.11	191.235
3012.47	190.522
3013.83	190.174
3015.19	191.413
3016.55	192.626
3017.91	190.028
3019.27	187.537
3020.64	185.549
3022	183.974
3023.35	182.891
3024.71	182.259
3026.07	181.72
3027.43	180.888
3028.79	179.867
3030.15	178.934
3031.51	178.08
3032.87	177.636
3034.22	177.618
3035.58	177.891
3036.94	178.43
3038.29	179.166
3039.65	180.142
3041.01	180.376
3042.36	179.844
3043.72	181.245
3045.07	182.526
3046.43	183.366
3047.78	184.219
3049.14	182.934
3050.49	181.394
3051.85	180.268
3053.2	179.295
3054.55	178.596
3055.91	178.237
3057.26	178.338
3058.61	179.402
3059.96	181.08
3061.32	182.533
3062.67	183.03
3064.02	182.667
3065.37	180.844
3066.72	179.003
3068.07	177.235
3069.42	175.687
3070.77	175.279
3072.12	176.492
3073.47	179.345
3074.82	183.061
3076.17	187.194
3077.52	185.927
3078.87	180.615
3080.22	179.943
3081.56	180.566
3082.91	180.314
3084.26	177.827
3085.61	175.768
3086.95	175.375
3088.3	177.108
3089.65	178.167
3090.99	178.615
3092.34	176.171
3093.68	174.785
3095.03	174.331
3096.37	174.795
3097.72	176.244
3099.06	178.389
3100.41	178.645
3101.75	178.338
3103.1	177.525
3104.44	177.015
3105.78	171.739
3107.12	172.928
3108.47	174.727
3109.81	177.924
3111.15	177.525
3112.49	177.458
3113.83	177.742
3115.18	177.928
3116.52	178.804
3117.86	180.925
3119.2	182.215
3120.54	183.459
3121.88	184.594
3123.22	185.552
3124.56	186.629
3125.9	187.585
3127.23	187.203
3128.57	187.032
3129.91	187.339
3131.25	187.657
3132.59	188.143
3133.92	187.864
3135.26	186.929
3136.6	185.61
3137.93	183.894
3139.27	181.376
3140.61	179.67
3141.94	178.25
3143.28	178.149
3144.61	179.74
3145.95	182.174
3147.28	186.015
3148.62	186.125
3149.95	186.757
3151.28	188.363
3152.62	189.234
3153.95	189.844
3155.28	190.131
3156.62	189.792
3157.95	187.974
3159.28	187.026
3160.61	186.697
3161.95	185.659
3163.28	185.266
3164.61	185.634
3165.94	186.346
3167.27	187.342
3168.6	188.347
3169.93	187.693
3171.26	184.656
3172.59	182.545
3173.92	181.483
3175.25	181.238
3176.58	182.589
3177.9	185.421
3179.23	188.303
3180.56	191.873
3181.89	192.298
3183.22	193.691
3184.54	195.286
3185.87	198.164
3187.2	201.038
3188.52	202.243
3189.85	200.273
3191.18	197.186
3192.5	196.021
3193.83	195.733
3195.15	199.483
3196.48	204.65
3197.8	204.478
3199.12	202.745
3200.45	203.062
3201.77	204.279
3203.1	206.637
3204.42	210.738
3205.74	215.471
3207.06	219.677
3208.39	220.833
3209.71	219.509
3211.03	219.139
3212.35	220.81
3213.67	221.879
3214.99	224.404
3216.31	226.405
3217.63	223.776
3218.95	219.837
3220.27	209.68
3221.59	215.133
3222.91	218.416
3224.23	217.359
3225.55	214.03
3226.87	210.847
3228.19	210.601
3229.51	209.673
3230.82	207.904
3232.14	207.665
3233.46	208.006
3234.78	206.52
3236.09	204.416
3237.41	202.098
3238.72	199.578
3240.04	196.902
3241.36	194.278
3242.67	191.59
3243.99	188.805
3245.3	186.157
3246.62	182.302
3247.93	179.885
3249.24	179.2
3250.56	178.332
3251.87	180.299
3253.18	180.161
3254.5	180.274
3255.81	180.654
3257.12	181.347
3258.43	182.211
3259.75	181.499
3261.06	177.115
3262.37	172.414
3263.68	172.021
3264.99	172.074
3266.3	169.053
3267.61	166.777
3268.92	165.215
3270.23	164.826
3271.54	164.87
3272.85	167.372
3274.16	170.565
3275.47	171.318
3276.78	172.313
3278.08	171.056
3279.39	168.721
3280.7	165.379
3282.01	162.785
3283.31	161.874
3284.62	162.253
3285.93	164.253
3287.23	166.266
3288.54	166.356
3289.85	166.799
3291.15	167.342
3292.46	167.831
3293.76	168.174
3295.07	168.349
3296.37	168.344
3297.68	166.39
3298.98	163.825
3300.28	162.685
3301.59	162.846
3302.89	161.755
3304.19	152.56
3305.49	161.142
3306.8	161.2
3308.1	161.875
3309.4	162.653
3310.7	161.094
3312	159.443
3313.31	158.016
3314.6	156.841
3315.91	156.055
3317.21	155.628
3318.51	155.572
3319.81	155.877
3321.11	156.634
3322.4	157.794
3323.7	159.115
3325	161.045
3326.3	163.33
3327.6	164.026
3328.9	163.858
3330.19	163.74
3331.49	163.686
3332.79	163.522
3334.08	163.198
3335.38	162.768
3336.68	162.063
3337.97	161.294
3339.27	160.351
3340.56	159.11
3341.86	157.585
3343.15	156.76
3344.45	158.1
3345.74	159.118
3347.04	160.855
3348.33	163.561
3349.63	164.773
3350.92	165.515
3352.21	165.774
3353.51	165.584
3354.8	164.821
3356.09	157.295
3357.38	161.325
3358.67	164.29
3359.96	164.175
3361.26	163.875
3362.55	163.646
3363.84	160.126
3365.13	160.285
3366.42	160.78
3367.71	162.512
3369	163.191
3370.29	162.041
3371.58	160.98
3372.87	160.027
3374.16	159.288
3375.44	158.716
3376.73	158.337
3378.02	158.374
3379.31	159.036
3380.59	159.67
3381.88	161.098
3383.17	161.975
3384.45	161.412
3385.74	159.322
3387.03	159.185
3388.31	159.982
3389.6	161.497
3390.88	163.308
3392.17	163.885
3393.45	162.193
3394.74	161.975
3396.02	160.518
3397.31	161.823
3398.59	161.388
3399.87	142.76
